1.008048
0.920674
0.769744
0.481836
0.231942
0.041183
-0.027497
-0.073380
-0.004111
-0.041419
0.014449
-0.015295
-0.001716
-0.017928
-0.043486
-0.009586
-0.020538
-0.019102
-0.020442
-0.001291
-0.000921
-0.017740
-0.018478
0.024293
-0.012913
0.003526
-0.005570
-0.004320
0.005079
-0.026934
-0.012304
0.038137
-0.011050
0.034349
0.039466
0.061388
0.062242
0.086885
0.091312
0.145367
0.130416
0.176441
0.163338
0.161025
0.238440
0.251829
0.247007
0.271388
0.293149
0.316673
0.286569
0.319540
0.279296
0.281122
0.240665
0.266370
0.218533
0.178600
0.172399
0.147107
0.126752
0.141432
0.079765
0.089558
0.023198
0.042949
0.069673
0.027966
0.012901
0.004291
-0.008255
0.037204
0.033431
-0.012063
0.019939
0.003262
0.014171
0.001171
0.016262
-0.006079
0.017221
0.026691
-0.037262
-0.033191
-0.002253
-0.012993
-0.012022
-0.013092
-0.000410
-0.036099
0.035153
0.037666
0.032372
-0.010042
-0.020170
-0.032327
-0.011425
-0.004882
-0.024571
0.021399
0.028792
0.029700
0.028159
0.000426
0.033435
0.014061
0.009888
-0.006658
-0.006267
-0.000912
-0.016526
0.027187
-0.001529
-0.000810
0.000060
0.027046
0.012420
0.005424
0.002404
-0.022570
0.011052
-0.009861
-0.002760
-0.018424
0.027870
-0.008296
-0.029688
0.016253
0.013702
-0.032348
-0.026509
-0.047616
-0.025324
0.007886
0.022891
0.000845
-0.009564
0.018372
-0.016729
0.021753
-0.046555
-0.011345
0.022539
-0.012138
-0.023886
-0.036055
-0.009971
0.016315
0.025229
0.006577
-0.002707
-0.030302
-0.030558
0.000330
-0.003042
0.019886
0.002070
0.037293
0.016072
-0.001428
0.009128
0.001907
-0.017520
-0.051557
0.029878
-0.018529
-0.006733
-0.051543
0.028682
0.038811
-0.022256
0.004309
0.038080
0.023459
-0.007084
-0.013015
-0.014368
-0.007206
-0.012087
-0.029850
0.001349
-0.066856
0.032062
0.006623
0.016010
-0.029796
0.009876
0.009924
-0.009297
-0.007840
0.009961
-0.007737
0.005701
-0.014759
-0.017209
-0.001649
-0.019629
-0.001741
0.018230
-0.002042
0.029354
0.040338
-0.018581
-0.009549
-0.029725
0.032409
-0.007056
0.010137
-0.018293
0.052143
0.004682
0.008973
0.024395
0.000581
0.010430
-0.003807
0.019891
-0.002910
-0.014007
0.010147
-0.000550
0.000698
-0.017123
0.022627
-0.025580
0.015910
0.009620
-0.040958
0.000879
-0.014491
-0.014648
0.013000
0.016811
0.002363
0.009197
0.013142
0.024140
0.000934
-0.001907
-0.027927
0.013625
0.011602
-0.007230
-0.039039
-0.027954
0.018419
-0.003696
0.011798
-0.008561
0.073736
-0.029026
0.007274
-0.003555
-0.011102
-0.002039
-0.001171
-0.005474
0.009548
0.001885
-0.006177
0.012153
-0.018321
0.008655
0.027573
0.031753
0.013639
0.091692
0.076581
0.127201
0.128677
0.138235
0.148709
0.109218
0.170710
0.150242
0.158385
0.111544
0.118574
0.122119
0.068908
0.061714
0.041707
0.007714
0.018241
0.020675
-0.010362
0.001126
0.024186
-0.014067
0.026929
-0.000123
0.004004
0.026363
-0.023516
0.042074
0.157297
0.364929
0.545796
0.751769
0.933934
0.977472
0.918825
0.736398
0.509771
0.235954
0.029532
-0.034327
-0.018900
-0.043064
-0.007364
-0.011110
-0.005327
-0.000113
-0.003461
-0.018614
-0.005358
-0.025485
-0.008432
-0.015065
-0.028681
-0.014340
-0.011829
-0.024666
0.039486
-0.005281
0.025049
-0.020194
-0.025597
0.002339
0.002329
0.016794
0.001841
0.034421
0.009892
0.037264
0.042446
0.075667
0.042707
0.078998
0.124060
0.154237
0.137691
0.177752
0.224931
0.216896
0.268735
0.257290
0.262600
0.331970
0.278382
0.291752
0.275392
0.308609
0.269186
0.267241
0.237351
0.212437
0.228863
0.206787
0.168052
0.171367
0.119907
0.077615
0.084852
0.064757
0.028527
0.033021
0.019132
0.032745
0.000229
-0.017141
-0.021989
0.005746
0.003384
0.027906
-0.002379
-0.019244
-0.017351
-0.000639
0.007520
0.009223
0.036882
-0.022297
-0.014181
0.001761
-0.028210
0.010226
-0.011456
0.005518
-0.016393
-0.002263
-0.011149
0.022871
-0.007048
-0.003723
0.016149
-0.007218
0.022228
0.036996
0.009955
0.008598
0.006487
0.020619
0.025368
-0.017489
-0.008013
0.007744
-0.012934
0.009637
0.014566
-0.004919
0.011933
0.055078
0.034047
0.019529
-0.021803
-0.003753
-0.038804
0.019270
-0.005207
-0.025153
0.006604
0.032044
-0.001479
-0.018292
-0.005888
0.016240
-0.012782
-0.022973
0.016365
0.017653
0.010152
-0.003031
0.006194
-0.032671
0.010425
0.028401
0.008151
0.003505
0.012645
0.007429
-0.011941
-0.022492
0.028587
-0.007833
0.006605
0.018647
-0.021274
-0.022626
-0.006853
-0.007102
0.013999
0.019830
-0.037590
-0.016954
0.014880
-0.009214
0.015344
0.007135
0.004079
-0.007434
-0.000288
0.014432
0.005549
0.038590
-0.020767
-0.007233
0.019930
-0.005164
0.027948
-0.020266
0.006913
0.008886
-0.013307
0.012002
0.041241
0.021855
0.005920
0.029391
0.022923
0.033137
-0.000471
-0.004687
-0.010869
-0.054371
-0.009152
-0.002306
0.005564
0.039413
-0.007730
-0.024814
0.006988
0.008792
-0.015075
-0.010664
0.014327
-0.015365
0.008726
0.002153
-0.005985
0.016568
0.010197
0.018558
-0.039284
-0.039410
-0.008529
-0.017976
-0.054767
0.003998
0.008573
-0.011834
0.008865
-0.014668
0.023576
0.021521
-0.037510
-0.013380
-0.013527
0.021077
-0.017498
-0.015482
-0.027418
-0.006686
-0.013358
-0.018344
-0.031382
-0.015427
-0.007912
-0.020388
-0.020655
0.025515
0.003531
-0.022550
-0.042855
-0.020536
-0.017026
0.009273
0.007667
0.020435
0.007610
0.000205
-0.001753
-0.008067
-0.020652
-0.008885
0.029877
-0.021650
0.006040
-0.022966
0.005128
-0.042130
-0.029572
0.024078
0.022361
-0.003456
0.007638
0.012191
-0.009540
0.018678
0.036221
0.002684
0.001642
0.018568
-0.002267
-0.002069
0.039232
0.053466
0.049183
0.094145
0.099333
0.117857
0.129862
0.158289
0.126126
0.152164
0.150158
0.107377
0.134514
0.072903
0.084233
0.051245
0.029542
0.075838
0.040155
-0.007321
0.018016
0.013811
0.017780
0.008836
-0.020534
-0.042567
-0.003913
-0.017370
0.009333
0.056514
0.198445
0.318236
0.501257
0.777395
0.910810
0.986105
0.909813
0.720960
0.446842
0.228654
0.060820
-0.036913
-0.055875
-0.004475
-0.033368
0.027510
-0.014068
-0.029578
-0.005365
0.015073
0.028949
-0.001339
-0.006273
-0.020364
0.026904
-0.010560
0.025092
0.005658
0.004002
0.018701
-0.020787
0.000362
0.070003
0.011449
0.014079
0.000070
0.009587
0.072879
0.016844
0.045321
0.035887
0.062230
0.092394
0.094278
0.096035
0.123491
0.125110
0.183502
0.220059
0.224024
0.237880
0.267943
0.280127
0.294860
0.260935
0.308998
0.300057
0.274480
0.272285
0.249605
0.240520
0.222985
0.211060
0.177995
0.149476
0.133973
0.139427
0.068775
0.089105
0.047437
0.020693
0.038448
0.064858
0.018638
0.000038
-0.000385
-0.009695
0.010013
0.020187
0.022510
-0.013169
0.013796
-0.010835
-0.011269
-0.001833
0.009994
0.011449
-0.021341
0.017747
0.018018
0.008532
0.026207
-0.005894
0.011937
-0.000012
0.009250
0.024172
-0.020483
-0.013609
-0.010411
0.022818
0.020790
-0.030434
0.017592
0.000165
-0.037998
-0.000858
0.001517
-0.010411
0.001418
0.018464
-0.016970
0.017138
-0.041435
0.011683
-0.005592
0.009163
-0.016402
0.029843
-0.014583
0.013376
-0.019929
-0.002681
0.007571
0.007881
0.024484
0.021322
0.009935
0.017570
0.012057
0.006535
-0.003451
-0.022394
0.000796
0.010500
0.002299
0.014351
0.000688
0.021777
0.010455
0.014313
0.008383
0.004025
-0.013312
0.027391
-0.018256
-0.030017
-0.028960
-0.005462
-0.011040
-0.014596
-0.012562
-0.032642
0.002220
-0.016817
0.014387
0.002549
0.022038
-0.004160
-0.007765
0.009053
0.042854
-0.003030
-0.007438
0.016386
-0.020587
-0.006997
-0.015373
0.003198
0.025704
0.000692
0.000195
0.004473
0.058102
-0.006761
0.005261
-0.003110
-0.011537
0.001900
-0.012652
-0.006731
0.014334
-0.008315
0.009258
-0.017992
-0.011492
0.021509
-0.004473
0.012539
-0.031297
-0.010314
-0.000898
0.022062
0.020032
0.001839
0.009849
0.016288
0.013945
-0.012621
0.027383
0.005811
-0.017513
-0.002273
0.001746
0.007183
0.007109
0.036742
0.029760
0.016332
0.005455
0.004808
0.004508
0.003634
-0.002868
0.000506
0.001622
-0.025419
0.003689
-0.017131
-0.011370
0.014473
0.031425
-0.006744
0.026189
-0.001118
0.011280
-0.049391
-0.042953
-0.009869
-0.018667
0.024864
-0.023597
-0.002313
-0.012055
-0.036181
0.007326
0.028112
0.029335
-0.013384
-0.022390
0.025623
-0.036233
-0.021462
0.022472
-0.045821
-0.005708
0.003938
0.055841
0.009584
-0.018249
0.023163
0.004650
0.016046
-0.015684
0.008318
-0.019871
0.019816
0.046142
0.027059
0.026554
0.012856
-0.012550
0.006536
0.004253
-0.005718
-0.002863
0.001733
0.013056
0.019046
0.017867
0.051247
0.045502
0.086713
0.084083
0.151092
0.112853
0.122835
0.087821
0.161397
0.136826
0.141423
0.111024
0.106005
0.037326
0.082698
0.048884
0.020378
-0.001598
0.055494
0.046839
-0.008770
0.021925
0.022576
-0.002276
0.012780
0.012412
-0.006593
-0.000597
0.027768
0.035705
0.145717
0.338456
0.561989
0.792864
0.940309
0.992495
0.895559
0.734789
0.478500
0.238803
0.063260
-0.037774
-0.044956
-0.041317
-0.017499
0.006815
0.017229
0.012195
0.003613
0.017304
-0.044002
0.026182
-0.001388
0.014647
-0.003532
-0.004819
-0.030817
0.000461
-0.008873
0.038104
0.003291
-0.026819
0.021945
-0.039990
0.015711
0.041631
0.010391
0.020930
0.046037
0.053226
0.059512
0.068539
0.057982
0.109389
0.129643
0.141552
0.167629
0.195864
0.208720
0.245999
0.233491
0.258722
0.282631
0.291210
0.268845
0.286387
0.325550
0.286615
0.264305
0.267873
0.234148
0.216061
0.241699
0.140601
0.132199
0.119977
0.135396
0.080334
0.060806
0.061278
0.037885
0.047582
0.049770
-0.001935
0.043860
0.031479
-0.042189
0.032831
-0.019209
0.026716
0.005720
-0.006445
-0.037804
-0.004066
-0.037371
-0.040792
0.009613
0.004521
0.008754
-0.010686
0.013878
0.002739
-0.000085
0.005469
-0.004015
0.001461
0.012628
0.006364
0.030774
0.023570
0.015100
0.003318
-0.012260
-0.013751
0.014386
0.037168
-0.011759
0.008909
0.005598
-0.012545
0.009567
-0.009134
0.019094
-0.002689
0.034460
0.039101
-0.001786
0.022678
0.004242
0.028850
0.005758
0.010948
0.005593
-0.014473
-0.005612
0.033575
-0.008174
-0.003559
-0.005092
-0.010601
-0.017841
-0.011927
0.004078
0.002379
0.005238
-0.017847
0.006009
-0.000091
-0.017745
-0.006503
0.029058
-0.009380
-0.021174
0.018162
0.018659
-0.010784
0.008238
0.006091
-0.019470
0.034134
-0.009161
-0.017220
0.035027
-0.040415
0.032474
-0.021293
-0.019916
-0.021582
-0.005544
-0.018812
0.011449
-0.000039
0.031995
-0.005164
0.004237
0.002441
-0.006029
-0.020314
0.006956
0.018977
-0.034899
-0.005918
-0.045954
-0.006498
0.025958
0.018237
0.008324
0.008925
0.020940
0.026546
0.011897
0.003841
0.006624
-0.052120
0.003365
-0.012552
0.007652
-0.009062
-0.004145
-0.013335
-0.014133
-0.008353
-0.006210
-0.003908
0.017181
-0.003741
0.014964
-0.026129
-0.019923
-0.000047
0.018662
0.032397
0.028261
0.017104
0.020748
0.036374
-0.018276
-0.007209
0.010169
0.002065
-0.011268
-0.033773
-0.002117
0.006454
-0.013830
-0.016298
0.000029
0.011384
0.010283
-0.022122
0.049680
-0.006022
-0.036211
-0.019927
-0.012188
-0.000291
-0.009689
0.033234
0.001858
-0.014415
0.012056
0.008259
0.012121
-0.007776
0.022666
-0.034527
-0.006845
-0.005342
-0.020885
0.004880
-0.005270
0.007061
0.015539
0.009111
-0.019717
-0.001180
0.014453
-0.010811
0.001650
-0.011588
0.016648
-0.001270
0.017823
0.013023
0.036426
-0.020792
-0.037468
-0.006194
-0.032389
0.010746
-0.000318
0.010403
0.007104
-0.017614
0.013309
0.006131
0.024818
0.044221
0.034773
0.065290
0.033089
0.045407
0.076732
0.103829
0.113160
0.138931
0.124518
0.166423
0.119594
0.163266
0.143429
0.128292
0.111465
0.097558
0.071185
0.039299
0.059738
0.024279
0.045483
-0.005350
-0.033656
0.010528
-0.018362
0.029287
0.004394
-0.007451
-0.009982
-0.060866
0.008643
0.054540
0.104946
0.316328
0.580360
0.765816
0.908829
0.996081
0.928338
0.751981
0.502404
0.203277
0.061523
-0.028582
-0.007814
-0.005322
-0.007558
0.033899
-0.000842
-0.025851
0.008541
-0.012870
0.009837
-0.028031
-0.003569
0.008793
-0.003760
-0.009962
0.051158
-0.008600
0.023702
0.009987
0.020845
-0.007616
0.018468
0.028995
-0.018527
0.030899
0.007213
0.031891
0.071374
0.045953
0.043182
0.033893
0.077851
0.129995
0.137760
0.142620
0.166594
0.198762
0.191897
0.235349
0.258633
0.289352
0.288492
0.304972
0.299567
0.292371
0.292719
0.290876
0.245999
0.259881
0.263622
0.194356
0.239352
0.167741
0.174546
0.161537
0.127678
0.093542
0.098619
0.048604
0.044618
0.045600
0.068791
0.036341
0.013748
0.022061
-0.000271
0.013228
-0.012319
-0.006544
-0.019698
0.000709
0.006533
0.018707
0.012424
0.015714
0.015724
-0.036336
0.011500
-0.025763
0.015827
-0.031640
0.042365
0.010063
-0.006775
0.000273
-0.033319
-0.000006
0.002840
-0.007008
-0.012774
-0.027640
-0.002667
0.030389
0.029631
0.003463
-0.000373
-0.017226
0.009692
-0.017792
0.016040
0.000133
-0.018295
-0.025737
0.003321
0.002258
-0.018696
0.026293
-0.037086
0.019955
-0.015796
0.031125
-0.005234
-0.020812
0.006753
0.009236
-0.002332
0.028197
-0.000036
0.013754
0.005621
-0.003192
-0.028978
-0.011006
-0.016631
-0.002591
0.023602
-0.030538
0.002000
-0.003240
0.002853
0.008842
0.000200
-0.016010
-0.003584
-0.007826
0.003869
0.006754
-0.048351
-0.033968
-0.014099
-0.000640
0.001477
-0.009839
0.023000
-0.009050
-0.024296
0.000528
-0.005044
-0.021940
0.001591
0.018576
0.008180
-0.017123
0.017267
0.005795
-0.028852
-0.042097
0.007911
-0.004233
0.017271
0.025251
-0.017662
-0.024551
-0.018401
0.017877
0.008714
-0.010426
0.029230
-0.017144
0.005487
0.022325
0.015961
0.009412
0.034449
0.003045
-0.069743
0.035904
-0.020676
0.012911
0.018202
-0.034053
0.037445
-0.001778
0.043767
-0.039887
0.019536
-0.005173
-0.065378
-0.022432
0.045646
-0.016225
0.048349
-0.004852
0.016451
-0.006328
-0.009471
0.008914
-0.009946
0.001732
-0.020692
-0.009028
-0.030973
0.004776
-0.029426
-0.002211
-0.012029
0.003077
0.003769
-0.001319
0.008040
0.022307
-0.048236
-0.000665
-0.007556
0.011103
-0.018295
0.006404
-0.016630
0.019005
-0.030321
0.021947
-0.005149
0.000900
-0.032022
0.020293
-0.015307
-0.017045
-0.017181
-0.002850
-0.009809
-0.004583
-0.041065
-0.020044
-0.002356
0.004341
0.014402
0.002339
0.008035
0.058173
0.031812
-0.011557
0.004354
0.045273
0.009203
0.006068
0.014410
-0.021949
0.014735
0.017652
0.008980
-0.012710
0.010740
-0.011303
0.006427
0.023012
0.017696
0.041228
0.001907
0.051587
0.044917
0.067207
0.070330
0.106207
0.122239
0.116663
0.171034
0.135759
0.132533
0.187437
0.156848
0.107747
0.108818
0.129033
0.083229
0.061185
0.036323
0.012385
-0.005863
0.070711
0.002332
-0.004710
-0.020125
-0.025014
-0.033008
0.019725
0.011697
-0.017720
-0.006724
0.035430
0.153403
0.313419
0.552375
0.771118
0.907916
0.996213
0.923236
0.723985
0.485823
0.252605
0.044798
-0.052303
-0.025410
-0.039364
-0.045706
-0.018479
0.002566
0.025791
0.024929
0.027822
-0.020778
-0.027353
0.019293
0.016037
-0.048957
0.007935
-0.028567
0.003166
-0.003581
-0.025494
0.053279
-0.004674
0.008119
-0.016364
-0.026027
0.015773
-0.043045
0.010019
0.019833
0.026167
0.057659
0.057909
0.088997
0.097827
0.115502
0.121925
0.149111
0.207824
0.185939
0.231872
0.258742
0.257780
0.258367
0.289949
0.266452
0.300185
0.299629
0.272869
0.259716
0.254036
0.230930
0.274278
0.223233
0.175495
0.145814
0.129113
0.094362
0.091827
0.072086
0.119145
0.019991
0.057016
0.062139
0.056126
0.033770
0.006368
0.004241
-0.010024
0.017628
-0.018352
0.001694
-0.021126
-0.015365
-0.012790
0.031460
-0.027803
-0.002596
-0.012056
0.026520
-0.017423
-0.002197
0.017199
0.028528
0.026973
0.015727
-0.001840
0.016316
0.031504
-0.001775
-0.006707
-0.002679
-0.000142
0.036241
0.041789
-0.033229
0.017623
-0.006927
-0.081202
0.027694
-0.012361
0.004228
-0.000262
0.019548
0.006620
0.006103
-0.035862
0.008028
-0.005019
-0.015662
0.005465
0.035035
0.038642
0.000645
-0.015652
-0.012869
-0.017618
0.010281
-0.008326
-0.018059
-0.011739
0.001666
-0.005839
0.026031
0.001145
0.010581
-0.010410
-0.017606
0.012633
0.012642
-0.011503
-0.010071
0.009628
-0.000180
-0.015494
-0.005200
0.001964
-0.000674
-0.014728
-0.009444
0.000381
0.035551
0.013420
0.001848
0.003625
-0.016938
0.011629
0.002772
0.017433
0.001588
-0.024298
-0.015527
0.026442
-0.048213
-0.007999
0.013313
0.005721
-0.017352
0.015371
0.000842
-0.004330
0.012702
-0.019808
0.043945
0.032452
-0.011130
0.009872
-0.009496
0.001479
-0.014525
-0.043687
-0.002896
0.029091
0.001041
-0.008568
-0.022598
0.024269
0.016173
-0.000443
-0.013651
-0.004931
0.027289
0.007384
0.015815
-0.013752
0.015819
0.022632
-0.014437
0.011375
-0.022471
0.031385
-0.053677
-0.004132
0.006877
-0.042737
-0.040453
-0.000193
0.038183
0.008278
0.015322
0.012436
-0.012337
0.006216
-0.013124
-0.001405
-0.009925
0.007084
0.000110
-0.001700
-0.005192
-0.008095
-0.006385
0.002744
-0.014760
0.020836
0.015368
-0.000865
0.020510
0.008801
-0.006511
-0.006265
-0.026845
0.032659
0.003135
-0.027088
-0.023271
-0.017473
0.001155
0.038856
-0.002636
-0.010816
0.005309
0.033301
0.012785
0.014871
-0.001783
-0.001487
-0.002929
-0.025394
0.007542
0.048946
-0.016679
-0.013624
0.023711
0.019859
0.019877
0.010433
-0.013613
0.018463
0.000212
0.034484
0.004803
-0.022863
-0.003881
-0.012542
-0.013312
0.002835
0.005192
-0.005062
0.033829
0.024249
0.037257
0.062070
0.058795
0.104148
0.110634
0.101077
0.128942
0.166427
0.129401
0.152610
0.134308
0.146338
0.115227
0.107388
0.062599
0.093206
0.060374
0.042988
0.023611
0.023293
0.013830
-0.030025
-0.006301
0.000370
-0.045032
0.021884
-0.002514
-0.021522
0.018736
0.035476
0.140593
0.297828
0.524680
0.756058
0.941794
0.995091
0.911253
0.742487
0.485018
0.261640
0.055485
-0.036008
-0.116453
-0.026343
-0.009808
-0.014314
0.009041
0.022934
-0.032426
-0.026921
0.007390
0.030544
0.028561
-0.004171
-0.010139
0.005873
0.006290
0.005084
0.014946
0.004257
0.040492
-0.010665
0.011621
-0.024261
-0.041547
-0.000998
0.019938
0.011029
0.050107
0.045297
0.057524
0.089844
0.095251
0.137010
0.121501
0.143343
0.149761
0.195254
0.215776
0.240544
0.265774
0.286619
0.245658
0.274289
0.296493
0.294167
0.301452
0.273061
0.291605
0.267266
0.218850
0.183129
0.239509
0.185454
0.167549
0.127687
0.102990
0.085736
0.112064
0.068592
0.075178
0.008021
0.037477
0.040112
0.045572
-0.003432
0.011157
-0.018613
0.009982
0.021883
-0.021309
-0.021712
-0.004294
-0.007469
0.005770
-0.006508
0.017621
-0.001220
-0.002408
0.014372
-0.014203
-0.001408
0.008536
-0.023782
0.022512
-0.016626
-0.004776
0.013533
0.007656
0.019846
0.009181
0.004784
0.019778
-0.030255
0.019495
0.016787
0.022427
0.006104
-0.004245
0.001364
-0.000080
-0.023626
0.025189
0.025138
-0.016044
0.008228
0.009186
-0.053668
0.002458
0.026246
-0.033690
-0.016246
0.018104
0.009636
-0.000307
-0.004600
0.026942
0.005536
0.008818
-0.045351
-0.000128
-0.012860
0.003421
-0.051031
0.042516
-0.034433
-0.004583
0.001621
0.022156
0.024924
-0.014161
0.003047
0.016860
0.010224
0.024630
-0.024299
-0.012133
-0.048525
-0.035636
0.038516
0.003115
-0.006957
-0.019847
0.008621
-0.014318
-0.033383
-0.024273
-0.045202
0.047259
0.019321
0.024134
-0.010329
-0.043688
0.009005
-0.030855
0.015119
-0.037395
0.015168
-0.004518
0.015729
0.001736
0.015631
-0.035499
-0.025722
-0.004965
-0.022281
0.004827
0.018860
0.006680
0.015245
-0.024181
0.017057
0.017290
0.000416
0.013635
0.031803
-0.013787
0.020224
0.015605
-0.017763
0.017405
-0.002847
0.027357
0.016258
-0.019570
-0.043644
0.002679
-0.021705
0.009132
-0.006367
-0.004886
0.000417
0.015503
-0.021756
0.009404
-0.043979
0.001016
0.006877
0.033905
0.011611
0.006233
-0.007946
-0.016844
0.021571
-0.001461
-0.018349
-0.008049
0.001194
-0.027060
-0.009748
-0.037821
-0.044650
-0.027819
0.022568
-0.011626
0.016959
0.020303
-0.012430
0.049663
0.014286
-0.014061
-0.019641
0.026778
-0.013815
0.004351
-0.005226
-0.024669
0.010542
-0.004724
-0.012506
-0.015665
0.017574
0.011477
0.046191
0.036072
-0.020652
-0.022847
-0.052339
0.004459
-0.025231
-0.018360
0.008611
0.001387
0.005172
-0.018183
-0.004206
-0.014229
0.005994
-0.009363
0.006448
-0.024361
-0.035230
0.017795
0.027675
0.021347
-0.032157
0.043925
0.050548
0.049908
0.014378
0.027852
0.055988
0.071173
0.106019
0.089524
0.122258
0.156228
0.140475
0.143495
0.123655
0.125356
0.121936
0.106730
0.099683
0.068854
0.067163
0.058601
0.050933
0.006075
0.051449
0.041303
0.014435
-0.001446
-0.026910
-0.037595
0.000157
-0.015320
-0.001170
-0.005652
0.032226
0.154428
0.327822
0.532218
0.777643
0.931508
0.961533
0.940387
0.744755
0.499771
0.249966
0.034222
-0.025472
-0.025686
-0.046093
0.010775
0.001585
-0.003899
0.004769
0.029554
0.000495
0.002568
0.031706
-0.018790
0.011220
-0.021923
-0.007740
0.007036
-0.004488
0.025938
0.009637
0.035464
-0.002438
-0.007061
-0.022000
-0.016263
0.007941
0.061226
0.037487
0.045211
0.015245
0.050637
0.086686
0.099643
0.091052
0.108280
0.156899
0.173404
0.199264
0.197088
0.227265
0.253583
0.262760
0.293291
0.303702
0.286918
0.284713
0.338798
0.272214
0.284169
0.316760
0.284646
0.251536
0.207920
0.211281
0.165867
0.115314
0.120907
0.064550
0.052380
0.094887
0.042850
0.039301
0.044024
0.030721
0.021140
0.014672
0.001059
-0.020615
-0.038140
-0.018614
0.002585
0.024020
-0.005936
-0.018692
-0.058963
-0.008321
-0.003464
0.012715
-0.022978
0.011767
-0.013374
0.002668
-0.011665
-0.009685
-0.005069
-0.011426
-0.007337
0.020316
0.000745
-0.013190
-0.028544
0.016915
0.023039
-0.008735
0.003095
-0.025287
0.021123
-0.016600
0.020628
0.013936
-0.020243
-0.034550
0.034440
-0.020588
0.049221
-0.033183
-0.010483
0.033772
-0.034036
0.032036
-0.027726
-0.039213
0.003946
0.030978
-0.004658
-0.018058
0.019408
0.023300
-0.015028
-0.012427
0.006069
0.010494
-0.023493
-0.029654
-0.014794
0.000944
-0.003821
-0.012515
-0.003492
-0.007267
-0.012204
0.010506
0.020700
-0.014290
-0.023451
0.044302
0.001166
-0.022220
0.015700
0.028840
-0.015222
-0.042294
-0.004931
0.026720
-0.021110
0.028997
-0.009033
-0.039804
-0.017825
0.003477
-0.028822
0.012365
0.024566
0.016149
-0.005484
0.002075
0.011801
-0.023088
-0.023251
0.000487
-0.023242
0.037899
-0.015154
0.032881
-0.002725
-0.027785
0.015752
-0.012854
0.026359
-0.026783
-0.018121
-0.013936
0.031639
-0.035847
-0.014820
0.011409
-0.032731
-0.011373
-0.046160
0.007487
-0.047909
0.023622
-0.031318
-0.001034
-0.013417
0.015844
-0.012904
0.019775
-0.006430
-0.032469
-0.006586
-0.008378
0.029997
0.001893
0.002221
-0.025209
0.016972
-0.014300
-0.004590
0.022326
-0.036246
0.000718
0.025666
0.017725
0.010837
0.017256
0.032212
0.005394
0.000233
-0.015409
-0.021113
0.018107
0.016477
0.008974
0.002632
0.015338
0.002327
-0.018810
-0.015456
0.032173
0.009901
-0.021055
-0.005739
-0.000497
0.017476
-0.030534
0.027331
-0.019264
0.021313
0.013952
0.046617
-0.003539
-0.006531
0.006452
-0.022757
0.034658
0.012210
-0.007525
0.023512
-0.000361
0.010335
-0.012094
0.010842
-0.038004
-0.034514
0.028546
-0.020683
0.003022
0.024620
0.031730
0.008722
-0.001169
-0.008281
-0.004192
0.008576
-0.027600
0.018285
0.035815
0.041054
0.041443
0.006537
0.020363
0.082838
0.045996
0.088321
0.130672
0.127822
0.137136
0.163540
0.164296
0.136176
0.097795
0.109891
0.074149
0.063507
0.073643
0.031234
0.024974
0.019048
-0.001034
0.005777
0.005108
-0.016858
-0.013481
0.010366
-0.020488
-0.010382
0.005566
0.017121
0.024648
0.126751
0.350424
0.525365
0.801951
0.964089
0.989172
0.939427
0.759654
0.517694
0.242612
0.043124
-0.051942
-0.080966
-0.047453
-0.002761
0.001860
0.022946
-0.014116
-0.012664
0.014808
-0.015986
-0.030722
-0.031868
0.003762
0.009420
0.034366
-0.001992
-0.017777
0.009471
-0.009059
0.004386
-0.031480
0.020149
-0.024972
0.015104
0.035471
0.025091
-0.002636
0.044753
0.055215
0.039547
0.082101
0.102120
0.094960
0.118097
0.142128
0.169464
0.192610
0.208898
0.223252
0.235252
0.310916
0.284253
0.304703
0.294123
0.311819
0.287063
0.297087
0.277281
0.296723
0.260135
0.206566
0.171159
0.208103
0.148465
0.159544
0.095313
0.113582
0.077935
0.103717
0.035567
0.018322
0.059803
0.054979
0.004029
-0.000010
-0.040281
-0.044036
-0.016660
0.008988
-0.012482
0.014326
-0.004408
-0.021622
0.002683
0.016352
-0.011648
0.006708
-0.022380
0.004509
-0.011569
0.005429
0.036078
0.001242
0.034343
-0.010952
-0.016414
-0.000294
-0.000828
0.008372
-0.002011
-0.009086
0.010686
-0.002181
0.011507
-0.003176
0.018881
-0.018750
-0.027220
-0.010733
-0.005729
-0.005174
0.001792
0.005358
0.006334
-0.031470
-0.004797
0.025242
0.000757
0.005861
0.020657
0.008126
-0.015385
0.024136
0.025433
0.000653
-0.011621
0.019772
0.028732
-0.004263
-0.026143
-0.009017
0.033731
-0.022152
0.016274
0.019862
-0.017728
0.010601
-0.002225
0.015030
0.015156
-0.022285
0.002920
-0.033708
-0.014083
-0.003253
0.017084
0.007246
0.033294
0.035632
0.006803
0.024782
0.019203
0.000705
-0.007975
0.001833
0.000406
0.005889
0.006296
-0.012363
-0.008942
-0.021139
0.006062
-0.007169
-0.015094
-0.029657
-0.003262
-0.003829
-0.003759
-0.028120
0.000250
0.013731
0.006800
0.029412
-0.031111
-0.009159
-0.022776
-0.007957
0.032634
-0.000300
-0.035321
-0.004967
0.029090
0.020514
-0.008642
-0.020184
-0.008924
-0.026932
-0.017259
0.009569
0.008445
-0.017942
-0.012393
0.008828
0.032886
0.022507
-0.029330
-0.004884
0.015808
-0.001707
-0.019670
-0.000100
-0.033021
0.022732
-0.026731
0.021498
-0.020496
0.011951
0.014000
-0.002540
0.024371
0.041048
0.012511
-0.019306
0.001528
-0.017705
-0.004087
0.013035
0.000548
-0.017943
-0.002922
-0.016803
0.014617
-0.000249
0.017243
0.027145
-0.013507
0.027720
-0.006972
-0.014130
-0.017427
0.018254
0.004767
0.005267
-0.027074
0.005413
-0.000432
0.013276
0.033576
0.041108
0.004424
0.013099
-0.015913
-0.002956
0.022303
0.001725
-0.015403
0.012531
0.046892
0.048553
0.010703
0.024256
-0.020841
0.012007
0.027182
-0.030062
0.006598
-0.008306
0.034898
0.030944
0.019620
0.007511
-0.037715
0.008546
0.009475
0.020204
0.005707
0.021267
0.028860
-0.006943
0.015395
0.079510
0.056187
0.105185
0.124835
0.115138
0.143653
0.144054
0.159074
0.137601
0.125508
0.111987
0.105028
0.107948
0.085351
0.040218
0.095800
0.011494
0.005488
0.037045
0.025520
-0.003715
0.006907
0.023382
-0.011691
-0.000695
-0.000442
-0.027455
-0.025529
0.076681
0.156977
0.307195
0.576947
0.782470
0.917363
1.020925
0.921322
0.771191
0.492223
0.231798
0.021445
-0.054157
-0.018530
-0.040302
-0.025779
0.020846
0.007902
-0.028661
0.005708
0.007319
0.009487
-0.007701
-0.000791
0.017255
0.003297
-0.018529
0.014753
0.023655
-0.031616
-0.018673
0.012540
0.006455
-0.005511
-0.020533
0.005495
0.006632
0.027961
0.039212
0.022596
0.009504
0.060627
0.068229
0.102391
0.111615
0.133278
0.174508
0.163584
0.172433
0.220874
0.212022
0.267518
0.263338
0.264726
0.278121
0.273200
0.277927
0.314469
0.276100
0.298425
0.251320
0.265928
0.213157
0.184559
0.185856
0.208511
0.137707
0.117225
0.133446
0.048589
0.063989
0.051277
0.006044
0.046986
0.026669
0.031356
0.035805
-0.039433
0.032718
-0.022543
0.018609
0.020150
0.002492
-0.004363
-0.022830
-0.031005
-0.063135
0.003780
0.031366
0.007958
-0.004800
0.001462
-0.019026
0.014739
-0.003296
0.000228
-0.011892
-0.018143
-0.003359
0.001269
0.019517
-0.019945
-0.012185
-0.007257
-0.024824
0.017838
-0.027434
-0.029999
0.009195
0.007559
0.001154
0.015392
-0.014602
-0.002179
0.007392
-0.021458
-0.005043
0.001653
0.002067
-0.015964
0.017068
0.005381
0.041907
-0.008228
0.001199
0.009609
-0.009682
-0.009054
-0.031567
-0.003335
-0.013887
-0.000103
-0.012659
0.017306
0.027314
-0.017792
0.005375
-0.001306
0.001204
0.021381
0.030983
0.017116
0.018425
-0.037236
-0.015583
-0.011819
0.013659
-0.000975
0.023772
-0.003495
-0.028866
0.035357
0.015211
0.010935
-0.006703
0.031633
0.024756
-0.014709
0.008641
-0.033336
-0.014285
-0.000110
0.006515
-0.002609
0.003231
-0.039184
0.053446
-0.005354
0.031646
0.018286
-0.038549
0.012616
-0.006341
0.029366
-0.011242
-0.024893
0.008664
-0.028529
-0.020398
-0.007516
-0.013006
-0.021968
0.011851
-0.031872
-0.013149
0.017925
-0.022821
-0.007245
-0.009528
-0.013188
0.036081
-0.014578
-0.004933
-0.003713
-0.008457
-0.001659
-0.009787
-0.037187
-0.000153
-0.048531
0.000041
0.004011
-0.001438
0.003853
-0.004823
0.011768
-0.018222
-0.007610
-0.004637
-0.002319
-0.018155
-0.038015
-0.002781
0.014187
0.016225
0.012521
0.013249
-0.004189
-0.039841
-0.002702
-0.026684
-0.018364
0.008918
-0.014222
0.002529
-0.007907
-0.031193
0.019427
0.019950
-0.025145
0.035129
0.018298
-0.001944
-0.007977
0.019054
0.000037
-0.046812
0.004817
-0.014531
-0.012511
0.016611
0.012366
0.020679
-0.004360
-0.014161
-0.004315
-0.041221
-0.002055
0.002521
0.029397
0.000056
-0.020088
0.000650
0.010026
-0.033066
0.008224
0.022172
-0.037520
0.007786
0.001415
-0.002011
0.013145
0.017843
-0.007499
-0.014389
-0.002701
-0.051822
-0.061796
0.024163
0.034548
0.016091
0.051303
0.067982
0.053243
0.099052
0.101407
0.119305
0.131335
0.119943
0.124920
0.177693
0.146963
0.106727
0.120977
0.104617
0.064106
0.038038
0.052778
0.068706
0.018802
0.027222
0.017576
-0.013511
-0.007792
0.023344
-0.008142
0.040379
-0.014822
0.038067
-0.023121
0.075494
0.153177
0.322065
0.547889
0.787514
0.949614
0.994767
0.941019
0.755059
0.465465
0.266853
0.032239
-0.011414
-0.079154
-0.026831
-0.029321
-0.000644
-0.018256
0.022934
0.023381
0.009495
0.024178
-0.013646
0.016570
0.018613
-0.004529
0.040849
-0.020329
-0.004972
0.035828
-0.019215
-0.002815
-0.023142
-0.007179
-0.029564
0.019128
0.021274
-0.006494
0.000765
-0.013143
0.012762
0.051715
0.037872
0.089570
0.094883
0.126582
0.147184
0.155389
0.192240
0.204830
0.238689
0.214649
0.276176
0.267996
0.305361
0.303374
0.319247
0.310597
0.308030
0.276322
0.270525
0.258338
0.232072
0.244083
0.212790
0.143132
0.152512
0.115222
0.120467
0.074333
0.060450
0.060977
0.055893
0.027367
0.035863
0.005208
0.037384
-0.000497
0.034466
-0.001584
-0.004240
-0.015355
0.013434
-0.006045
0.009475
0.034136
-0.019020
0.044608
-0.018158
-0.047702
0.009250
-0.003591
0.027830
0.003661
0.030644
-0.011243
-0.027844
0.011343
0.001086
0.021440
-0.017522
-0.004567
-0.014662
-0.025143
0.025892
-0.023169
-0.022125
-0.027535
0.014014
-0.014346
-0.002976
-0.024726
0.021969
0.004902
0.010409
-0.032701
0.022811
-0.020816
0.050233
0.028963
-0.027804
0.004080
-0.054302
0.026117
0.002187
0.010657
-0.035676
-0.012423
-0.037116
-0.002450
0.009314
0.022040
0.005910
0.002705
0.007252
-0.017461
-0.002192
0.017295
0.006076
-0.005748
0.010101
-0.024282
0.071436
-0.019977
0.001788
-0.010807
-0.016835
0.001777
0.022984
-0.028887
-0.029874
-0.007797
-0.019025
0.026100
0.001168
0.001687
0.029816
-0.021795
0.026345
-0.007428
-0.010180
-0.001826
-0.007367
-0.009320
-0.024923
0.019902
0.000570
-0.001754
0.000580
0.006641
-0.006655
-0.036585
0.040238
-0.023577
0.003111
0.031583
0.009331
-0.008281
-0.014005
0.014014
-0.001065
-0.001509
-0.011524
-0.006965
-0.013810
0.008631
0.034247
-0.003708
0.006696
0.011979
0.010138
0.011638
0.026656
-0.014137
0.003090
0.008249
-0.016085
-0.040851
-0.004917
0.011959
0.009882
-0.050260
-0.023773
-0.013399
0.005239
-0.029208
-0.002780
0.027177
-0.007367
-0.003027
0.000784
0.009795
-0.011894
-0.005521
-0.012995
-0.005709
0.020044
0.001646
-0.007924
0.019069
-0.001783
-0.021617
-0.006020
0.029820
-0.012291
0.000328
-0.020107
-0.029719
0.014498
-0.007326
0.082019
0.041275
-0.011835
-0.002285
-0.001084
0.005536
0.015542
0.004632
0.007505
0.000434
0.018984
-0.000341
-0.003517
0.033651
0.025254
-0.007581
0.005826
-0.005364
0.014596
-0.033903
0.032189
-0.032089
-0.018052
0.003543
-0.003675
0.001126
-0.009368
0.001792
0.009602
0.040950
0.022857
-0.024042
0.011917
0.015536
0.021971
-0.017957
0.017304
-0.001643
0.008179
-0.002243
0.035513
0.081500
0.060179
0.106833
0.048346
0.128892
0.129849
0.159066
0.112565
0.160920
0.134878
0.167943
0.122145
0.092361
0.090874
0.090020
0.070750
0.076837
-0.006975
0.008248
0.035049
0.008834
-0.010708
-0.016624
0.042245
-0.006924
-0.009872
-0.014649
-0.000770
0.012519
0.051185
0.152801
0.363501
0.575522
0.718755
0.893070
0.993826
0.898336
0.766438
0.529300
0.269570
0.079312
-0.016407
-0.043215
-0.040095
-0.000228
-0.025236
0.025523
-0.008406
0.000622
-0.002104
0.006329
0.035846
-0.000442
-0.002162
-0.002714
0.013749
0.038015
-0.031238
0.000860
-0.011619
0.013793
-0.013901
0.006895
-0.022506
0.003458
0.025040
0.024091
-0.006772
0.053438
0.036349
-0.004021
0.091228
0.072251
0.101467
0.127778
0.132922
0.152216
0.150253
0.171444
0.250540
0.197922
0.273837
0.245108
0.281297
0.333682
0.319421
0.284774
0.265444
0.255319
0.279711
0.253436
0.230989
0.152352
0.150025
0.181592
0.114804
0.106183
0.098192
0.087399
0.065775
0.046536
0.059744
0.050017
0.013409
-0.016347
-0.018118
0.010251
0.014326
0.001743
0.005777
0.017861
0.004333
0.017648
0.010901
-0.012202
0.005907
-0.008010
-0.004262
-0.011822
-0.015505
0.006232
-0.019849
0.013244
-0.016781
-0.008429
-0.009009
-0.030354
-0.018849
0.023060
0.017287
-0.027769
0.006633
-0.019758
0.009466
-0.035862
-0.015622
0.008281
-0.023717
-0.015925
-0.004584
-0.005786
0.017045
-0.012096
0.014860
-0.013884
-0.006182
0.004327
0.020721
-0.038107
-0.016078
-0.002997
0.021341
0.002117
-0.013155
0.015142
0.003386
0.018511
-0.036492
-0.037709
0.001824
0.006343
0.012867
0.022000
0.007018
-0.006920
0.028235
-0.007679
-0.013592
-0.000430
-0.008708
-0.009228
0.009522
-0.042993
0.011491
0.018243
-0.004712
-0.029798
-0.051065
-0.013597
-0.031437
-0.024017
0.010895
-0.034108
-0.014702
-0.006552
0.041280
-0.002310
-0.001864
-0.018566
0.000836
0.017599
-0.024765
0.020438
0.004552
-0.028029
0.009328
0.026532
0.011694
-0.008331
0.028648
0.019907
0.008824
-0.001451
-0.012787
0.005592
-0.027721
0.049111
0.037236
-0.007558
0.015985
-0.001705
-0.016009
0.004782
0.017552
-0.013463
-0.014079
0.005701
-0.039935
-0.006390
-0.004293
-0.039435
-0.023683
-0.015808
-0.016894
0.016598
0.034108
0.009820
0.004042
0.004243
-0.004308
-0.003693
0.015189
-0.010184
0.001736
-0.029641
-0.003482
0.024775
-0.020326
0.027720
0.001758
0.016829
-0.028613
-0.000543
0.008616
-0.013057
0.025212
-0.026585
-0.002012
-0.016195
-0.027834
-0.013268
-0.048319
0.030412
0.029357
0.002110
0.022952
0.005573
-0.011508
0.007319
0.007814
-0.003827
0.026503
0.025826
-0.010916
-0.000022
-0.003747
-0.002762
0.004068
-0.000042
-0.010038
0.006858
0.017788
0.003833
0.019474
0.005850
-0.005650
0.017681
0.014483
-0.007410
-0.021642
0.036462
0.033596
0.028711
0.005756
-0.014620
0.023977
-0.026788
0.007965
0.022637
-0.004858
0.016488
-0.005962
0.022193
-0.005557
-0.000629
0.009998
0.028554
0.007754
0.001773
0.030097
-0.011997
0.000764
0.028407
0.029085
0.002543
-0.023215
0.008860
0.010227
0.004353
-0.008843
0.037820
-0.024256
-0.019560
0.026959
0.007894
-0.001589
-0.024449
0.009399
0.003713
-0.016228
0.015495
0.000465
-0.005700
0.018933
-0.011019
0.009799
0.032838
-0.012046
0.024355
0.004540
0.021825
-0.003562
-0.005928
-0.024784
-0.024894
